 Temperature, Energy,Energy^2,C_v,Average
   5.00000000     , -0.42905837402343749      ,  0.18418253530859946      ,   3.6578798174461798E-006 ,           1
   4.91632652     , -0.43673713378906248      ,  0.19083321989178659      ,   3.8847674271046748E-006 ,           1
   4.83265305     , -0.44528120117187497      ,  0.19836862593889237      ,   3.9939915432031326E-006 ,           1
   4.74897957     , -0.45508640136718748      ,  0.20719968956112861      ,   4.2591972654944974E-006 ,           1
   4.66530609     , -0.46340874023437501      ,  0.21484464886188506      ,   4.4561442757796246E-006 ,           1
   4.58163261     , -0.47453574218750000      ,  0.22527193498611450      ,   4.1809763185635379E-006 ,           1
   4.49795914     , -0.48415249023437501      ,  0.23448903548717498      ,   4.2211949075254067E-006 ,           1
   4.41428566     , -0.49441245117187499      ,  0.24452133215665817      ,   3.9854563986861075E-006 ,           1
   4.33061218     , -0.50675778808593752      ,  0.25688526085019114      ,   4.3619592453924746E-006 ,           1
   4.24693871     , -0.51772722167968754      ,  0.26812350222468379      ,   4.5477896447925264E-006 ,           1
   4.16326523     , -0.53107539062499998      ,  0.28212003883123399      ,   4.5560096130103153E-006 ,           1
   4.07959175     , -0.54387348632812504      ,  0.29587508617639541      ,   4.6095492991014134E-006 ,           1
   3.99591827     , -0.55855388183593746      ,  0.31205442641377451      ,   4.5084155068851215E-006 ,           1
   3.91224480     , -0.57292011718750002      ,  0.32831310750246046      ,   4.9424087928866241E-006 ,           1
   3.82857132     , -0.58861196289062501      ,  0.34652914522886274      ,   4.4414353681160511E-006 ,           1
   3.74489784     , -0.60589055175781248      ,  0.36716241248250009      ,   4.2106870800248324E-006 ,           1
   3.66122437     , -0.62243884277343753      ,  0.38748331817984583      ,   3.9691848195326356E-006 ,           1
   3.57755113     , -0.64189777832031247      ,  0.41208076471686361      ,   3.7508698949490850E-006 ,           1
   3.49387765     , -0.66320007324218755      ,  0.43987606245875360      ,   3.4180956766762194E-006 ,           1
   3.41020393     , -0.68403322753906248      ,  0.46794718243479727      ,   3.9319055026433133E-006 ,           1
   3.32653046     , -0.70657226562499997      ,  0.49929021494388581      ,   4.1432499438687754E-006 ,           1
   3.24285722     , -0.73278903808593754      ,  0.53702223543524741      ,   4.0377136757517316E-006 ,           1
   3.15918374     , -0.75858894042968750      ,  0.57550485809445384      ,   4.7770984325022979E-006 ,           1
   3.07551026     , -0.78781806640624996      ,  0.62068360792398458      ,   2.7807194333019084E-006 ,           1
   2.99183679     , -0.82099384765625005      ,  0.67405918933153153      ,   3.1606706792445445E-006 ,           1
   2.90816331     , -0.85822250976562497      ,  0.73657958594560624      ,   3.9858138575861991E-006 ,           1
   2.82448983     , -0.89581650390625001      ,  0.80247779808044428      ,  -1.1796055693521794E-006 ,           1
   2.74081635     , -0.94087641601562499      ,  0.88523170719146727      ,  -2.2261526223500612E-006 ,           1
   2.65714288     , -0.99035817871093745      ,  0.98079706946015355      ,  -1.7354066252223171E-006 ,           1
   2.57346940     ,  -1.0456199218750000      ,   1.0932531836748123      ,  -1.0243087160732187E-005 ,           1
   2.48979592     ,  -1.1183958984375000      ,   1.2507823704957961      ,  -4.3579255786181905E-006 ,           1
   2.40612245     ,  -1.1917044921875000      ,   1.4201010764122008      ,  -1.0108134226230722E-005 ,           1
   2.32244897     ,  -1.3062656738281251      ,   1.7063140929102898      ,  -2.9511293623785920E-006 ,           1
   2.23877549     ,  -1.4817255371093749      ,   2.1953540570259094      ,  -3.1226391950493175E-005 ,           1
   2.15510225     ,  -1.6036864990234374      ,   2.5713811280190946      ,  -9.2423786633987216E-005 ,           1
   2.07142854     ,  -1.6898697753906251      ,   2.8550441549301149      ,  -1.4349318429937694E-004 ,           1
   1.98775530     ,  -1.7528285888671875      ,   3.0716482391893862      ,  -1.9230315314897755E-004 ,           1
   1.90408158     ,  -1.8072521240234376      ,   3.2652982368886470      ,  -2.3775932385020003E-004 ,           1
   1.82040811     ,  -1.8513952148437500      ,   3.4267333006501199      ,  -2.8092124087523892E-004 ,           1
   1.73673487     ,  -1.8856362060546874      ,   3.5546244070708752      ,  -3.3137016546519037E-004 ,           1
   1.65306115     ,  -1.9139687988281251      ,   3.6622291947364807      ,  -3.8328470606137230E-004 ,           1
   1.56938791     ,  -1.9365645751953124      ,   3.7491964435636995      ,  -4.4089317673361481E-004 ,           1
   1.48571444     ,  -1.9545076171875000      ,   3.8189797358274458      ,  -5.0752765573270546E-004 ,           1
   1.40204072     ,  -1.9683671386718751      ,   3.8733240499615671      ,  -5.8255687436686257E-004 ,           1
   1.31836748     ,  -1.9791416015625001      ,   3.9158388491034506      ,  -6.6891135430862628E-004 ,           1
   1.23469377     ,  -1.9865937255859376      ,   3.9453781178772451      ,  -7.7175263528950059E-004 ,           1
   1.15102053     ,  -1.9921822753906251      ,   3.9676041828036310      ,  -8.9522377935552337E-004 ,           1
   1.06734705     ,  -1.9958479248046874      ,   3.9822165980756283      ,  -1.0466202434010303E-003 ,           1
  0.983673573     ,  -1.9980684570312499      ,   3.9910815533757211      ,  -1.2360362417332149E-003 ,           1
  0.900000095     ,  -1.9994753173828126      ,   3.9967030755341053      ,  -1.4795915472452850E-003 ,           1
   5.00000000     , -0.42851774902343748      ,  0.18371609179377557      ,   3.5452228774058514E-006 ,           2
   4.91632652     , -0.43667692871093750      ,  0.19078110508322715      ,   3.9041777766490065E-006 ,           2
   4.83265305     , -0.44521057128906250      ,  0.19830621330142020      ,   4.0146595645690293E-006 ,           2
   4.74897957     , -0.45441264648437502      ,  0.20658562945127487      ,   4.2024111865543826E-006 ,           2
   4.66530609     , -0.46377397460937497      ,  0.21517284862995148      ,   3.9765121613497233E-006 ,           2
   4.58163261     , -0.47361835937500002      ,  0.22440192791223526      ,   4.1720775374437525E-006 ,           2
   4.49795914     , -0.48464145507812501      ,  0.23496045423746109      ,   4.1081328896725965E-006 ,           2
   4.41428566     , -0.49420234374999999      ,  0.24431722019910812      ,   4.1703770139829659E-006 ,           2
   4.33061218     , -0.50669277343749997      ,  0.25681396313905713      ,   4.0735663192733009E-006 ,           2
   4.24693871     , -0.51790471191406251      ,  0.26830601164698603      ,   4.4754289797194221E-006 ,           2
   4.16326523     , -0.53111936035156249      ,  0.28216190976500510      ,   4.2771461237409385E-006 ,           2
   4.07959175     , -0.54437729492187503      ,  0.29641193913221359      ,   3.9235496116194101E-006 ,           2
   3.99591827     , -0.55782480468749995      ,  0.31123504085540771      ,   4.1665074808790718E-006 ,           2
   3.91224480     , -0.57378127441406246      ,  0.32930182058215141      ,   5.0223066654824514E-006 ,           2
   3.82857132     , -0.58850979003906245      ,  0.34640760261416437      ,   4.3546068611830752E-006 ,           2
   3.74489784     , -0.60477976074218753      ,  0.36582179979681967      ,   4.5093852027852994E-006 ,           2
   3.66122437     , -0.62257236328124999      ,  0.38766252251863481      ,   4.9367516571870767E-006 ,           2
   3.57755113     , -0.64197116699218748      ,  0.41217549737095832      ,   3.7908122687654211E-006 ,           2
   3.49387765     , -0.66204123535156245      ,  0.43835273246169093      ,   4.4346978093416949E-006 ,           2
   3.41020393     , -0.68376972656250001      ,  0.46758200256824495      ,   3.5223903615369897E-006 ,           2
   3.32653046     , -0.70639990234375005      ,  0.49904398975372316      ,   3.9010017637134823E-006 ,           2
   3.24285722     , -0.73150649414062496      ,  0.53515484788417811      ,   5.0490956522322407E-006 ,           2
   3.15918374     , -0.75948229980468751      ,  0.57684557481408116      ,   3.2274220476038327E-006 ,           2
   3.07551026     , -0.78958068847656249      ,  0.62345932666659354      ,   2.2902624770140159E-006 ,           2
   2.99183679     , -0.82060986328124996      ,  0.67343254580497747      ,   3.5747709866763525E-006 ,           2
   2.90816331     , -0.85624526367187503      ,  0.73318435938358306      ,   3.3589255147228140E-006 ,           2
   2.82448983     , -0.89565549316406246      ,  0.80218135887980457      ,  -2.1815135688454815E-006 ,           2
   2.74081635     , -0.93940922851562503      ,  0.88246730829477316      ,  -2.9805784584271150E-006 ,           2
   2.65714288     , -0.98834956054687495      ,  0.97683121787309646      ,  -5.1497872432266772E-007 ,           2
   2.57346940     ,  -1.0484626220703126      ,   1.0992291272580623      ,  -6.7559033675415988E-006 ,           2
   2.48979592     ,  -1.1185485107421875      ,   1.2511070629537107      ,  -7.0507079737978137E-006 ,           2
   2.40612245     ,  -1.1976322753906250      ,   1.4342922911286353      ,  -5.3158866872794471E-006 ,           2
   2.32244897     ,  -1.3119568603515626      ,   1.7215180028736592      ,   5.3246519627507226E-005 ,           2
   2.23877549     ,  -1.4828693115234375      ,   2.1987388925850393      ,  -3.2421930301143778E-005 ,           2
   2.15510225     ,  -1.6019774414062500      ,   2.5659312705516815      ,  -8.6221371035164710E-005 ,           2
   2.07142854     ,  -1.6875722900390624      ,   2.8472623600065710      ,  -1.4866032559720713E-004 ,           2
   1.98775530     ,  -1.7557510498046875      ,   3.0819022200882435      ,  -1.9222875528446549E-004 ,           2
   1.90408158     ,  -1.8076992675781249      ,   3.2669224485039710      ,  -2.3560531986563501E-004 ,           2
   1.82040811     ,  -1.8503401367187500      ,   3.4228281860828398      ,  -2.8076872303621161E-004 ,           2
   1.73673487     ,  -1.8852939697265625      ,   3.5533370077550410      ,  -3.3032582779483704E-004 ,           2
   1.65306115     ,  -1.9138152099609376      ,   3.6616426357805727      ,  -3.8279211723287192E-004 ,           2
   1.56938791     ,  -1.9362472900390626      ,   3.7479639392197130      ,  -4.4240298547308567E-004 ,           2
   1.48571444     ,  -1.9543153808593750      ,   3.8182282464265822      ,  -5.0756010211177531E-004 ,           2
   1.40204072     ,  -1.9683100830078124      ,   3.8730998768627645      ,  -5.8233474981001399E-004 ,           2
   1.31836748     ,  -1.9788136230468749      ,   3.9145406493067743      ,  -6.6895480262324969E-004 ,           2
   1.23469377     ,  -1.9868176757812499      ,   3.9462675326824188      ,  -7.7203565470906519E-004 ,           2
   1.15102053     ,  -1.9921931396484376      ,   3.9676477619469166      ,  -8.9500348123856268E-004 ,           2
   1.06734705     ,  -1.9958131835937500      ,   3.9820781437516213      ,  -1.0464264137024783E-003 ,           2
  0.983673573     ,  -1.9981414062500000      ,   3.9913729174017907      ,  -1.2361978366110607E-003 ,           2
  0.900000095     ,  -1.9994625976562499      ,   3.9966522383213041      ,  -1.4795567521633456E-003 ,           2
   5.00000000     , -0.42804260253906251      ,  0.18331927552819252      ,   3.9522378708885710E-006 ,           3
   4.91632652     , -0.43661435546874999      ,  0.19072149714231490      ,   3.6988315087735732E-006 ,           3
   4.83265305     , -0.44558293457031251      ,  0.19863547912240029      ,   3.9104840111981775E-006 ,           3
   4.74897957     , -0.45439736328125002      ,  0.20656624180078506      ,   3.9586223477901788E-006 ,           3
   4.66530609     , -0.46402163085937498      ,  0.21540550475120546      ,   4.1089141947153407E-006 ,           3
   4.58163261     , -0.47344826660156247      ,  0.22424123459458351      ,   4.1909363164621437E-006 ,           3
   4.49795914     , -0.48387050781250002      ,  0.23421977869272231      ,   4.4045055707024703E-006 ,           3
   4.41428566     , -0.49467778320312500      ,  0.24479228959083557      ,   4.4227010032281504E-006 ,           3
   4.33061218     , -0.50602980957031252      ,  0.25614794309735300      ,   4.3603520934028035E-006 ,           3
   4.24693871     , -0.51844516601562496      ,  0.26886230764389041      ,   4.2645483953229337E-006 ,           3
   4.16326523     , -0.53079770507812496      ,  0.28182453315258027      ,   4.5191506999689225E-006 ,           3
   4.07959175     , -0.54340891113281253      ,  0.29537506048083306      ,   4.9159072603742466E-006 ,           3
   3.99591827     , -0.55851459960937500      ,  0.31201738982200622      ,   4.9370614948078661E-006 ,           3
   3.91224480     , -0.57348596191406254      ,  0.32895413410067559      ,   4.4418595468269034E-006 ,           3
   3.82857132     , -0.58815405273437504      ,  0.34599675933122637      ,   4.8826436635974853E-006 ,           3
   3.74489784     , -0.60537919921875005      ,  0.36655079536437990      ,   4.7646374612010673E-006 ,           3
   3.66122437     , -0.62259406738281253      ,  0.38768999350666999      ,   4.9700067041727994E-006 ,           3
   3.57755113     , -0.64181267089843752      ,  0.41197658110260965      ,   4.1469729613553413E-006 ,           3
   3.49387765     , -0.66177268066406247      ,  0.43800661693215370      ,   5.2048103768844219E-006 ,           3
   3.41020393     , -0.68328793945312505      ,  0.46693424652814863      ,   4.4574890451154583E-006 ,           3
   3.32653046     , -0.70692573242187495      ,  0.49979348641633986      ,   4.4728114077165917E-006 ,           3
   3.24285722     , -0.73028222656249997      ,  0.53335933477878572      ,   4.4887590914360840E-006 ,           3
   3.15918374     , -0.75910632324218752      ,  0.57627671256661417      ,   3.4369801962973963E-006 ,           3
   3.07551026     , -0.78836442871093748      ,  0.62154451274275779      ,   2.7530327422261118E-006 ,           3
   2.99183679     , -0.82053300781250005      ,  0.67328113647699361      ,   7.5069834999917617E-007 ,           3
   2.90816331     , -0.85754768066406251      ,  0.73539397044777866      ,   7.0303234454547513E-007 ,           3
   2.82448983     , -0.89711494140625003      ,  0.80481004856824878      ,  -6.4799353985894344E-007 ,           3
   2.74081635     , -0.94130947265624998      ,  0.88604092237949372      ,  -3.0086143042965866E-006 ,           3
   2.65714288     , -0.99166315917968750      ,  0.98335355723500251      ,  -5.9860615589233344E-006 ,           3
   2.57346940     ,  -1.0458816406250000      ,   1.0938160714983940      ,  -7.9022676563231322E-006 ,           3
   2.48979592     ,  -1.1128931152343751      ,   1.2384635304570197      ,  -1.0897655331848763E-005 ,           3
   2.40612245     ,  -1.1987433837890624      ,   1.4369845597922801      ,  -1.9697737154681504E-007 ,           3
   2.32244897     ,  -1.3015880371093751      ,   1.6941142429113387      ,  -3.1843101752191261E-006 ,           3
   2.23877549     ,  -1.4852106201171875      ,   2.2055969248950480      ,  -5.0609606398437204E-005 ,           3
   2.15510225     ,  -1.6061017089843750      ,   2.5790870050072670      ,  -1.0242180679467542E-004 ,           3
   2.07142854     ,  -1.6882346191406250      ,   2.8494961654782296      ,  -1.4914733915256234E-004 ,           3
   1.98775530     ,  -1.7553131835937501      ,   3.0803631209135056      ,  -1.9266477342494626E-004 ,           3
   1.90408158     ,  -1.8083197509765625      ,   3.2691744463384151      ,  -2.3331101492462148E-004 ,           3
   1.82040811     ,  -1.8514214355468750      ,   3.4268218630075453      ,  -2.8349468466341192E-004 ,           3
   1.73673487     ,  -1.8857698730468750      ,   3.5551268313169477      ,  -3.3192988767085274E-004 ,           3
   1.65306115     ,  -1.9139745117187501      ,   3.6622485350251197      ,  -3.8420995025368476E-004 ,           3
   1.56938791     ,  -1.9365652832031250      ,   3.7491964907288553      ,  -4.4198739709944032E-004 ,           3
   1.48571444     ,  -1.9544264404296876      ,   3.8186639558851718      ,  -5.0683240899742472E-004 ,           3
   1.40204072     ,  -1.9682751953124999      ,   3.8729626362681389      ,  -5.8228500049367865E-004 ,           3
   1.31836748     ,  -1.9788660644531251      ,   3.9147475032567978      ,  -6.6935313481971553E-004 ,           3
   1.23469377     ,  -1.9865724121093751      ,   3.9452938703298570      ,  -7.7146765994366782E-004 ,           3
   1.15102053     ,  -1.9922201171875000      ,   3.9677547633767127      ,  -8.9537200232313395E-004 ,           3
   1.06734705     ,  -1.9958942871093750      ,   3.9824017184019089      ,  -1.0465728801544176E-003 ,           3
  0.983673573     ,  -1.9980663818359374      ,   3.9910731955468655      ,  -1.2361034881661083E-003 ,           3
  0.900000095     ,  -1.9994726562500000      ,   3.9966924228310585      ,  -1.4796050921554453E-003 ,           3
   5.00000000     , -0.42830424804687500      ,  0.18353274649381637      ,   3.5287042024567096E-006 ,           4
   4.91632652     , -0.43637624511718748      ,  0.19051994401812553      ,   3.9601018921688349E-006 ,           4
   4.83265305     , -0.44528798828124999      ,  0.19836941237449646      ,   3.7688552036376047E-006 ,           4
   4.74897957     , -0.45410270996093749      ,  0.20630430590510368      ,   4.2138751653292087E-006 ,           4
   4.66530609     , -0.46422233886718750      ,  0.21559375062584876      ,   4.1980421337395950E-006 ,           4
   4.58163261     , -0.47353693847656247      ,  0.22431998245120049      ,   3.9421150159680780E-006 ,           4
   4.49795914     , -0.48392807617187500      ,  0.23427933875322343      ,   4.5945783580742396E-006 ,           4
   4.41428566     , -0.49454624023437499      ,  0.24466640971899031      ,   4.6405810441974827E-006 ,           4
   4.33061218     , -0.50641220703125001      ,  0.25653523983955384      ,   4.3678963070470438E-006 ,           4
   4.24693871     , -0.51791862792968746      ,  0.26832090635895728      ,   4.5020515778005559E-006 ,           4
   4.16326523     , -0.53130605468750003      ,  0.28236197918653488      ,   4.3764155065216235E-006 ,           4
   4.07959175     , -0.54458820800781249      ,  0.29664419434666633      ,   4.0784573270193910E-006 ,           4
   3.99591827     , -0.55735917968750004      ,  0.31072856367826462      ,   4.9669130866724511E-006 ,           4
   3.91224480     , -0.57286198730468751      ,  0.32824149132370950      ,   4.6149482606856306E-006 ,           4
   3.82857132     , -0.58923317871093750      ,  0.34725957110524175      ,   4.3547821313836279E-006 ,           4
   3.74489784     , -0.60569790039062499      ,  0.36693001550436022      ,   4.2832180790340431E-006 ,           4
   3.66122437     , -0.62259807128906253      ,  0.38768382959961889      ,   4.1382347245769910E-006 ,           4
   3.57755113     , -0.64223308105468746      ,  0.41251871650815009      ,   4.3274209179515846E-006 ,           4
   3.49387765     , -0.66195856933593755      ,  0.43823623790144922      ,   3.8575971595963354E-006 ,           4
   3.41020393     , -0.68272465820312500      ,  0.46616652808189391      ,   4.6063207831885325E-006 ,           4
   3.32653046     , -0.70690808105468750      ,  0.49976972289681437      ,   4.5805830812068926E-006 ,           4
   3.24285722     , -0.73226022949218750      ,  0.53624069283604625      ,   3.3899506352693661E-006 ,           4
